date,ATR
2020-09-30 20:30:00,0.0
2020-09-30 21:00:00,1.9153280649923836
2020-09-30 21:30:00,1.9153280649923836
2020-09-30 22:00:00,1.9153280649923836
2020-09-30 22:30:00,1.9153280649923836
2020-09-30 23:00:00,1.6893530606866176
2020-09-30 23:30:00,0.7044201693383687
2020-10-01 00:00:00,0.924442274007576
2020-10-01 00:30:00,0.9798640651362756
2020-10-01 01:00:00,1.1337907494904775
2020-10-01 01:30:00,0.9605113617244505
2020-10-01 02:00:00,1.1705070761371448
2020-10-01 02:30:00,1.7965120681556404
2020-10-01 03:00:00,1.3803615806262897
2020-10-01 03:30:00,1.1187061612739757
2020-10-01 04:00:00,2.0470424047209925
2020-10-01 04:30:00,3.035104723802048
2020-10-01 05:00:00,4.078727650965757
2020-10-01 05:30:00,1.5308216611808976
2020-10-01 06:00:00,1.172198405930673
2020-10-01 06:30:00,1.2519389057593555
2020-10-01 07:00:00,1.2396585350812839
2020-10-01 07:30:00,0.7763605385814375
2020-10-01 08:00:00,1.3440681724854109
2020-10-01 08:30:00,1.694009945750222
2020-10-01 09:00:00,1.523927449371738
2020-10-01 09:30:00,1.1751945965373256
2020-10-01 10:00:00,1.5507357276633433
2020-10-01 10:30:00,1.891223177194307
2020-10-01 11:00:00,1.726767831349012
2020-10-01 11:30:00,2.094293641548232
2020-10-01 12:00:00,4.218126694133646
2020-10-01 12:30:00,7.284762794317558
2020-10-01 13:00:00,8.012927693824189
2020-10-01 13:30:00,5.896785589359341
2020-10-01 14:00:00,3.301330369435964
2020-10-01 14:30:00,3.1209729884037922
2020-10-01 15:00:00,3.3428517771413344
2020-10-01 15:30:00,2.863245451394821
2020-10-01 16:00:00,2.371621854286027
2020-10-01 16:30:00,2.4316585717883066
2020-10-01 17:00:00,2.57454833655792
2020-10-01 17:30:00,2.00797926458158
2020-10-01 18:00:00,1.7662575957128497
2020-10-01 18:30:00,1.733816256243321
2020-10-01 19:00:00,1.6455312663598065
2020-10-01 19:30:00,1.1720212111514947
2020-10-01 20:00:00,1.4665170366339124
2020-10-01 20:30:00,1.87824839695402
2020-10-01 21:00:00,2.3855634963554295
2020-10-01 21:30:00,1.7119457325343688
2020-10-01 22:00:00,2.0144531290824643
2020-10-01 22:30:00,1.4031658581118251
2020-10-01 23:00:00,1.114524584279877
2020-10-01 23:30:00,1.2328970995191488
2020-10-02 00:00:00,1.1961101455668044
2020-10-02 00:30:00,1.6317357482942083
2020-10-02 01:00:00,3.068774760110216
2020-10-02 01:30:00,3.939460554045364
2020-10-02 02:00:00,5.806569907388521
2020-10-02 02:30:00,1.9701619834134125
2020-10-02 03:00:00,2.210917567286536
2020-10-02 03:30:00,1.2865935628931469
2020-10-02 04:00:00,1.6670352223756937
2020-10-02 04:30:00,2.644493560629674
2020-10-02 05:00:00,4.221244157347613
2020-10-02 05:30:00,5.1077579837080345
2020-10-02 06:00:00,3.830024936895252
2020-10-02 06:30:00,3.0588519430612293
2020-10-02 07:00:00,3.7462310394663927
2020-10-02 07:30:00,2.225845792251673
2020-10-02 08:00:00,2.1805860109433852
2020-10-02 08:30:00,2.187895655266998
2020-10-02 09:00:00,2.3235733830298657
2020-10-02 09:30:00,2.9787895345710664
2020-10-02 10:00:00,3.7823767747984545
2020-10-02 10:30:00,4.856512834563672
2020-10-02 11:00:00,2.4748981827157692
2020-10-02 11:30:00,2.84354855552028
2020-10-02 12:00:00,2.2969589467152036
2020-10-02 12:30:00,2.4692020619416577
2020-10-02 13:00:00,2.3020160936443705
2020-10-02 13:30:00,0.8411204754010686
2020-10-02 14:00:00,1.040496900953383
2020-10-02 14:30:00,1.1065036026857133
2020-10-02 15:00:00,1.1726424984046875
2020-10-02 15:30:00,1.4757649504556618
2020-10-02 16:00:00,1.540977000846915
2020-10-02 16:30:00,1.7530946178566376
2020-10-02 17:00:00,2.037039231183426
2020-10-02 17:30:00,1.9290768922050234
2020-10-02 18:00:00,2.123116991930163
2020-10-02 18:30:00,2.96133904098828
2020-10-02 19:00:00,1.5560655711290758
2020-10-02 19:30:00,1.5787060504846824
2020-10-02 20:00:00,1.3154286771358232
2020-10-02 20:30:00,1.2307882105679495
2020-10-02 21:00:00,1.5353032277438605
2020-10-02 21:30:00,0.9763652810639263
2020-10-02 22:00:00,1.1566499739543197
2020-10-02 22:30:00,1.0653028637775626
2020-10-02 23:00:00,1.3941782873264046
2020-10-02 23:30:00,1.5330972205951696
2020-10-03 00:00:00,2.1233722810148574
2020-10-03 00:30:00,0.7611182085519514
2020-10-03 01:00:00,1.0203388085014353
2020-10-03 01:30:00,0.9239345427435929
2020-10-03 02:00:00,1.4661326647159394
2020-10-03 02:30:00,1.213990492938497
2020-10-03 03:00:00,1.4278761875092456
2020-10-03 03:30:00,0.9830144362950073
2020-10-03 04:00:00,1.2979229287912244
2020-10-03 04:30:00,2.0316192210876762
2020-10-03 05:00:00,2.2305226921018155
2020-10-03 05:30:00,1.453452972489115
2020-10-03 06:00:00,1.2480886899069872
2020-10-03 06:30:00,1.2049112264089519
2020-10-03 07:00:00,1.543033976075574
2020-10-03 07:30:00,1.636653334634958
2020-10-03 08:00:00,1.8742506832473262
2020-10-03 08:30:00,1.1637029878568366
2020-10-03 09:00:00,1.3376562420447233
2020-10-03 09:30:00,0.7728464063970956
2020-10-03 10:00:00,0.7499294263191986
2020-10-03 10:30:00,0.8322215882106334
2020-10-03 11:00:00,0.855241183810684
2020-10-03 11:30:00,0.7462191528114375
2020-10-03 12:00:00,0.88331208754446
2020-10-03 12:30:00,1.30590306660356
2020-10-03 13:00:00,1.1802820911922633
2020-10-03 13:30:00,1.3969408816599427
2020-10-03 14:00:00,1.3252671171453199
2020-10-03 14:30:00,1.5137689408358215
2020-10-03 15:00:00,1.9285830762661558
2020-10-03 15:30:00,0.8828717554495493
2020-10-03 16:00:00,0.8195712299599257
2020-10-03 16:30:00,0.9084585681529748
2020-10-03 17:00:00,1.0290420914825023
2020-10-03 17:30:00,0.6891634754215473
2020-10-03 18:00:00,0.7814777570201066
2020-10-03 18:30:00,1.0359187983266507
2020-10-03 19:00:00,1.4871111963991022
2020-10-03 19:30:00,1.4061015334407343
2020-10-03 20:00:00,1.2843671910262722
2020-10-03 20:30:00,1.5941270844019622
2020-10-03 21:00:00,1.4257519345179936
2020-10-03 21:30:00,1.0327787011639455
2020-10-03 22:00:00,1.335810076120076
2020-10-03 22:30:00,1.3292031167150902
2020-10-03 23:00:00,0.968617468324473
2020-10-03 23:30:00,0.8466270784726602
2020-10-04 00:00:00,0.7446417653819928
2020-10-04 00:30:00,0.7874487079904418
2020-10-04 01:00:00,0.7800428522754567
2020-10-04 01:30:00,0.4175302869442693
2020-10-04 02:00:00,0.8092896037817023
2020-10-04 02:30:00,1.1637653588860197
2020-10-04 03:00:00,1.6952399313800917
2020-10-04 03:30:00,1.1300363585315991
2020-10-04 04:00:00,0.8982944304968903
2020-10-04 04:30:00,0.8931288229530047
2020-10-04 05:00:00,1.2010100111405073
2020-10-04 05:30:00,1.393998069663513
2020-10-04 06:00:00,1.054517395552832
2020-10-04 06:30:00,1.1361821687269427
2020-10-04 07:00:00,1.369266199998413
2020-10-04 07:30:00,0.9384784542446764
2020-10-04 08:00:00,1.2490533733492404
2020-10-04 08:30:00,1.6886717211284812
2020-10-04 09:00:00,2.0500500888777022
2020-10-04 09:30:00,2.1044234854425268
2020-10-04 10:00:00,1.485422408760202
2020-10-04 10:30:00,1.2298329274255464
2020-10-04 11:00:00,1.420182438818831
2020-10-04 11:30:00,1.1205421991132876
2020-10-04 12:00:00,0.9949976639024227
2020-10-04 12:30:00,1.1407738404504943
2020-10-04 13:00:00,1.0016210197358044
2020-10-04 13:30:00,0.6535287745366013
2020-10-04 14:00:00,1.1374321262355063
2020-10-04 14:30:00,1.7220494021746797
2020-10-04 15:00:00,2.6414494944984046
2020-10-04 15:30:00,1.5718197576408446
2020-10-04 16:00:00,1.8000661569234555
2020-10-04 16:30:00,2.106262400366318
2020-10-04 17:00:00,1.7886907721578655
2020-10-04 17:30:00,1.6723625829089483
2020-10-04 18:00:00,1.1636273443480323
2020-10-04 18:30:00,1.0742003856324158
2020-10-04 19:00:00,0.9164970584912406
2020-10-04 19:30:00,0.704865079372554
2020-10-04 20:00:00,1.2241742270887446
2020-10-04 20:30:00,1.4654633586404415
2020-10-04 21:00:00,2.279109004012952
2020-10-04 21:30:00,0.8457472379059933
2020-10-04 22:00:00,0.88059352230798
2020-10-04 22:30:00,0.7114754503896675
2020-10-04 23:00:00,0.630505754729085
2020-10-04 23:30:00,0.9372138705937256
2020-10-05 00:00:00,1.3425924918347147
2020-10-05 00:30:00,1.0834684601504212
2020-10-05 01:00:00,0.8072389383749314
2020-10-05 01:30:00,0.6929917914661702
2020-10-05 02:00:00,1.2067218155285764
2020-10-05 02:30:00,1.6605665323522811
2020-10-05 03:00:00,2.440960832600999
2020-10-05 03:30:00,1.551634608464688
2020-10-05 04:00:00,1.490747217011289
2020-10-05 04:30:00,1.3564806823775544
2020-10-05 05:00:00,1.173260113733048
2020-10-05 05:30:00,1.373682655427991
2020-10-05 06:00:00,1.4599181518431452
2020-10-05 06:30:00,1.1907033081292404
2020-10-05 07:00:00,1.0380490354508287
2020-10-05 07:30:00,1.182699997252225
2020-10-05 08:00:00,1.2650898628127203
2020-10-05 08:30:00,1.295637820601089
2020-10-05 09:00:00,1.74268769983241
2020-10-05 09:30:00,1.4397408223895183
2020-10-05 10:00:00,1.799015480061429
2020-10-05 10:30:00,1.5737024835838254
2020-10-05 11:00:00,1.8448474852558343
2020-10-05 11:30:00,0.869720077581458
2020-10-05 12:00:00,0.7024153974514861
2020-10-05 12:30:00,0.7326431692082414
2020-10-05 13:00:00,1.1572257784813573
2020-10-05 13:30:00,1.7214373061524921
2020-10-05 14:00:00,1.6612481359165068
2020-10-05 14:30:00,1.6878247092267393
2020-10-05 15:00:00,1.3954734021019224
2020-10-05 15:30:00,1.0038999503051427
2020-10-05 16:00:00,0.7002922465107619
2020-10-05 16:30:00,0.8039205017868455
2020-10-05 17:00:00,0.9980672844420122
2020-10-05 17:30:00,0.8958218219558948
2020-10-05 18:00:00,1.1626471587996874
2020-10-05 18:30:00,0.8840778231150637
2020-10-05 19:00:00,1.013698299564106
2020-10-05 19:30:00,0.9841424985207726
2020-10-05 20:00:00,1.173712659530037
2020-10-05 20:30:00,1.485956389542697
2020-10-05 21:00:00,1.408789059512922
2020-10-05 21:30:00,1.1429495946910468
2020-10-05 22:00:00,0.7519613127132373
2020-10-05 22:30:00,0.9551137820606407
2020-10-05 23:00:00,0.832849845577743
2020-10-05 23:30:00,0.9838512023561813
2020-10-06 00:00:00,0.8544216086455727
2020-10-06 00:30:00,0.9866396420867386
2020-10-06 01:00:00,0.9499424554783278
2020-10-06 01:30:00,0.6809474747641545
2020-10-06 02:00:00,0.9170153197241347
2020-10-06 02:30:00,0.7707708388821412
2020-10-06 03:00:00,0.9022851540297703
2020-10-06 03:30:00,0.9315741481106805
2020-10-06 04:00:00,1.3529015314452078
2020-10-06 04:30:00,1.6558573969117911
2020-10-06 05:00:00,1.2002516506729592
2020-10-06 05:30:00,0.7010540805864927
2020-10-06 06:00:00,0.7171193778574914
2020-10-06 06:30:00,0.9118500995870109
2020-10-06 07:00:00,2.1107750961886587
2020-10-06 07:30:00,2.766212056465171
2020-10-06 08:00:00,3.84547220144542
2020-10-06 08:30:00,1.7622784397590099
2020-10-06 09:00:00,1.7266393157184623
2020-10-06 09:30:00,1.7690430814031601
2020-10-06 10:00:00,2.197822906136927
2020-10-06 10:30:00,2.423728491706748
2020-10-06 11:00:00,3.3501954982991853
2020-10-06 11:30:00,4.3694424218108185
2020-10-06 12:00:00,5.798573472224504
2020-10-06 12:30:00,3.714013926042849
2020-10-06 13:00:00,1.6742715333821938
2020-10-06 13:30:00,1.3176703352166401
2020-10-06 14:00:00,1.286237306382944
2020-10-06 14:30:00,2.2046677216425508
2020-10-06 15:00:00,3.2785779220709115
2020-10-06 15:30:00,5.080654089382765
2020-10-06 16:00:00,2.9506311522025124
2020-10-06 16:30:00,2.2067672975591903
2020-10-06 17:00:00,2.3086611977602196
2020-10-06 17:30:00,2.93620204755324
2020-10-06 18:00:00,2.014879480657757
2020-10-06 18:30:00,1.7482933790803432
2020-10-06 19:00:00,1.933981297458324
2020-10-06 19:30:00,1.5065122294106654
2020-10-06 20:00:00,1.294353441150051
2020-10-06 20:30:00,1.2730057114249471
2020-10-06 21:00:00,1.4507425005424692
2020-10-06 21:30:00,1.9573766179227565
2020-10-06 22:00:00,3.0151648503153763
2020-10-06 22:30:00,2.8730379692246886
2020-10-06 23:00:00,1.710467328003886
2020-10-06 23:30:00,1.5091390643581395
2020-10-07 00:00:00,2.2774247381041
2020-10-07 00:30:00,1.690385806929
2020-10-07 01:00:00,1.9196947098644916
2020-10-07 01:30:00,1.4605587969806244
2020-10-07 02:00:00,2.104681565533348
2020-10-07 02:30:00,1.6959852111571552
2020-10-07 03:00:00,1.9361773160662157
2020-10-07 03:30:00,1.6907163906058704
2020-10-07 04:00:00,1.8318910977318215
2020-10-07 04:30:00,1.4829862335968067
2020-10-07 05:00:00,1.9059447711054291
2020-10-07 05:30:00,1.9837987165000128
2020-10-07 06:00:00,2.2463172942769347
2020-10-07 06:30:00,1.5842874593137588
2020-10-07 07:00:00,1.3255374192757714
2020-10-07 07:30:00,1.7715967514467164
2020-10-07 08:00:00,1.651330792547163
2020-10-07 08:30:00,1.568069930345969
2020-10-07 09:00:00,1.8510747721545138
2020-10-07 09:30:00,1.1390626627026224
2020-10-07 10:00:00,1.485410685247084
2020-10-07 10:30:00,1.2054160320392973
2020-10-07 11:00:00,1.4522160895670342
2020-10-07 11:30:00,1.5142473975044886
2020-10-07 12:00:00,2.2531105911510902
2020-10-07 12:30:00,2.039594462867576
2020-10-07 13:00:00,2.20844160944123
2020-10-07 13:30:00,1.496643376904793
2020-10-07 14:00:00,1.9136077061085488
2020-10-07 14:30:00,1.8507122972434589
2020-10-07 15:00:00,2.180196132630669
2020-10-07 15:30:00,0.986341730726182
2020-10-07 16:00:00,1.2562571626855092
2020-10-07 16:30:00,0.8256637763319481
2020-10-07 17:00:00,0.8528757454225332
2020-10-07 17:30:00,0.8473642218634392
2020-10-07 18:00:00,0.6340336041463668
2020-10-07 18:30:00,0.6829496099667868
2020-10-07 19:00:00,0.8229729770953518
2020-10-07 19:30:00,0.844534206566336
2020-10-07 20:00:00,1.1629056541053548
2020-10-07 20:30:00,1.4371881188259301
2020-10-07 21:00:00,1.345912543372668
2020-10-07 21:30:00,1.0710182226334108
2020-10-07 22:00:00,1.3220903193717473
2020-10-07 22:30:00,1.2056043146754476
2020-10-07 23:00:00,1.0869123996426775
2020-10-07 23:30:00,0.961472570701632
2020-10-08 00:00:00,1.0313964211383413
2020-10-08 00:30:00,0.6918965409334102
2020-10-08 01:00:00,0.9808438971912221
2020-10-08 01:30:00,0.8341324427201483
2020-10-08 02:00:00,1.1957075527357293
2020-10-08 02:30:00,0.9259633727125898
2020-10-08 03:00:00,1.9101565518879573
2020-10-08 03:30:00,2.2169563520743854
2020-10-08 04:00:00,2.7563233271265473
2020-10-08 04:30:00,1.0436628548765827
2020-10-08 05:00:00,1.335719744028903
2020-10-08 05:30:00,1.5815481590599003
2020-10-08 06:00:00,2.2599841453077896
2020-10-08 06:30:00,1.5443296207084005
2020-10-08 07:00:00,2.1091716272412926
2020-10-08 07:30:00,0.9278621076614098
2020-10-08 08:00:00,1.133172324997665
2020-10-08 08:30:00,1.3952869306528501
2020-10-08 09:00:00,2.599576886608621
2020-10-08 09:30:00,2.0750457931488993
2020-10-08 10:00:00,2.72987303153139
2020-10-08 10:30:00,2.0287142423312607
2020-10-08 11:00:00,2.9715460954694737
2020-10-08 11:30:00,4.341904686596667
2020-10-08 12:00:00,2.4737529696532774
2020-10-08 12:30:00,2.15738500677865
2020-10-08 13:00:00,2.6753288458308644
2020-10-08 13:30:00,1.6631813994467335
2020-10-08 14:00:00,1.771543977740066
2020-10-08 14:30:00,1.1932904930920452
2020-10-08 15:00:00,1.4105783385751056
2020-10-08 15:30:00,1.419981308942995
2020-10-08 16:00:00,1.3800142894242051
2020-10-08 16:30:00,1.4299723981410084
2020-10-08 17:00:00,2.0223615053236808
2020-10-08 17:30:00,1.269055174042504
2020-10-08 18:00:00,1.2951573144742297
2020-10-08 18:30:00,1.3020034878493902
2020-10-08 19:00:00,1.2741075867218952
2020-10-08 19:30:00,0.9362773743232207
2020-10-08 20:00:00,1.3333943001664483
2020-10-08 20:30:00,1.4441163546447269
2020-10-08 21:00:00,1.6234831022955838
2020-10-08 21:30:00,0.9396674310873461
2020-10-08 22:00:00,1.1829209270169145
2020-10-08 22:30:00,1.1537445859484117
2020-10-08 23:00:00,0.9466970183281749
2020-10-08 23:30:00,0.6947809475319953
2020-10-09 00:00:00,0.8920313457333382
2020-10-09 00:30:00,0.790884370040493
2020-10-09 01:00:00,0.8264367130565587
2020-10-09 01:30:00,0.7512156123099827
2020-10-09 02:00:00,1.0526168232565385
2020-10-09 02:30:00,1.0813087402705648
2020-10-09 03:00:00,1.3091803398045592
2020-10-09 03:30:00,0.9178328198513519
2020-10-09 04:00:00,1.297851261846751
2020-10-09 04:30:00,0.7647410914563249
2020-10-09 05:00:00,0.8469930845461784
2020-10-09 05:30:00,0.8962661056499787
2020-10-09 06:00:00,1.3133514144730034
2020-10-09 06:30:00,2.173660597762174
2020-10-09 07:00:00,4.052768485833029
2020-10-09 07:30:00,4.573223607962665
2020-10-09 08:00:00,3.484281139416214
2020-10-09 08:30:00,1.6418752790884463
2020-10-09 09:00:00,1.568191484708998
2020-10-09 09:30:00,1.6722507706009977
2020-10-09 10:00:00,1.1298820973246377
2020-10-09 10:30:00,1.2583314588270562
2020-10-09 11:00:00,1.4027534245914937
2020-10-09 11:30:00,2.560651867782157
2020-10-09 12:00:00,2.862479773747474
2020-10-09 12:30:00,3.966282058257432
2020-10-09 13:00:00,2.213967835660009
2020-10-09 13:30:00,1.107667770516122
2020-10-09 14:00:00,1.1748787750056877
2020-10-09 14:30:00,1.399700594811194
2020-10-09 15:00:00,1.9660741402810855
2020-10-09 15:30:00,1.442254526576248
2020-10-09 16:00:00,1.6916816884068553
2020-10-09 16:30:00,1.302110292410482
2020-10-09 17:00:00,1.1129128345428447
2020-10-09 17:30:00,1.4454009179563996
2020-10-09 18:00:00,1.6123722031978016
2020-10-09 18:30:00,1.7991620359452307
2020-10-09 19:00:00,1.7214886627007655
2020-10-09 19:30:00,2.401663053493224
2020-10-09 20:00:00,3.0823550330341893
2020-10-09 20:30:00,2.274519905932895
2020-10-09 21:00:00,1.9276926647785966
2020-10-09 21:30:00,1.335431659124428
2020-10-09 22:00:00,2.53405589061827
2020-10-09 22:30:00,3.22248843988963
2020-10-09 23:00:00,4.759469912759934
2020-10-09 23:30:00,2.212407366168354
2020-10-10 00:00:00,2.0160392407190013
2020-10-10 00:30:00,1.3502012222643245
2020-10-10 01:00:00,1.328990260329308
2020-10-10 01:30:00,1.132885072984349
2020-10-10 02:00:00,1.1843446439560772
2020-10-10 02:30:00,1.3676724862508662
2020-10-10 03:00:00,0.8608167007436754
2020-10-10 03:30:00,0.8396612276027603
2020-10-10 04:00:00,0.9506992839549677
2020-10-10 04:30:00,0.8213956329127647
2020-10-10 05:00:00,1.389194887533074
2020-10-10 05:30:00,2.123284719239638
2020-10-10 06:00:00,3.703781870722736
2020-10-10 06:30:00,3.2750793297293175
2020-10-10 07:00:00,3.015426367663823
2020-10-10 07:30:00,1.8668526375677914
2020-10-10 08:00:00,1.5268410693283725
2020-10-10 08:30:00,1.5125914321531206
2020-10-10 09:00:00,2.015760029830595
2020-10-10 09:30:00,1.9778902224271588
2020-10-10 10:00:00,1.4939811119972561
2020-10-10 10:30:00,1.9295395839050757
2020-10-10 11:00:00,1.53797314861567
2020-10-10 11:30:00,1.817668057724461
2020-10-10 12:00:00,1.9999448247715366
2020-10-10 12:30:00,2.63070333689863
2020-10-10 13:00:00,1.645986331972964
2020-10-10 13:30:00,1.527455742380833
2020-10-10 14:00:00,1.8480201718511784
2020-10-10 14:30:00,1.7366297727527353
2020-10-10 15:00:00,1.243980570109039
2020-10-10 15:30:00,1.459498525479392
2020-10-10 16:00:00,1.142214267403767
2020-10-10 16:30:00,1.267835838286172
2020-10-10 17:00:00,1.394443535173035
2020-10-10 17:30:00,1.8621569900806216
2020-10-10 18:00:00,2.5531569234801252
2020-10-10 18:30:00,1.14114004553671
2020-10-10 19:00:00,1.4471553175983594
2020-10-10 19:30:00,1.8191385384709
2020-10-10 20:00:00,2.479784130666528
2020-10-10 20:30:00,2.2373888838531784
2020-10-10 21:00:00,1.8777731479946738
2020-10-10 21:30:00,2.2402897290919057
2020-10-10 22:00:00,1.5908425587914312
2020-10-10 22:30:00,1.3261775644803557
2020-10-10 23:00:00,0.9834806443685954
2020-10-10 23:30:00,1.22572657796182
2020-10-11 00:00:00,1.4482139234073388
2020-10-11 00:30:00,1.357807846710032
2020-10-11 01:00:00,1.227369658909108
2020-10-11 01:30:00,1.4146830580061558
2020-10-11 02:00:00,1.144417788314403
2020-10-11 02:30:00,0.9244518433655928
2020-10-11 03:00:00,0.8441251979551377
2020-10-11 03:30:00,1.0253520798342317
2020-10-11 04:00:00,0.8934581182442789
2020-10-11 04:30:00,1.0680311326214513
2020-10-11 05:00:00,1.1684875350494521
2020-10-11 05:30:00,1.0870087993450133
2020-10-11 06:00:00,0.7681463721992721
2020-10-11 06:30:00,1.4437932274576788
2020-10-11 07:00:00,2.3436993673294255
2020-10-11 07:30:00,3.3912815946317654
2020-10-11 08:00:00,2.2722261173503746
2020-10-11 08:30:00,1.7804192368876326
2020-10-11 09:00:00,2.199474543152505
2020-10-11 09:30:00,1.2335987474883685
2020-10-11 10:00:00,1.248967206336344
2020-10-11 10:30:00,1.709356098564251
2020-10-11 11:00:00,2.6165268077088832
2020-10-11 11:30:00,3.0908453330129446
2020-10-11 12:00:00,2.0427010555733545
2020-10-11 12:30:00,1.4655877949434801
2020-10-11 13:00:00,1.8165218227155377
2020-10-11 13:30:00,1.2787456026847401
2020-10-11 14:00:00,1.0376976835836784
2020-10-11 14:30:00,1.0837310838483947
2020-10-11 15:00:00,1.0376708270909005
2020-10-11 15:30:00,1.626963697412672
2020-10-11 16:00:00,1.477989031223521
2020-10-11 16:30:00,1.3267240269363314
2020-10-11 17:00:00,0.811073285874423
2020-10-11 17:30:00,0.9739189669650229
2020-10-11 18:00:00,1.2589448173564106
2020-10-11 18:30:00,1.146780353736827
2020-10-11 19:00:00,1.1601657931751985
2020-10-11 19:30:00,0.785779815938865
2020-10-11 20:00:00,1.0008162282667974
2020-10-11 20:30:00,1.4118667582526363
2020-10-11 21:00:00,1.1626944726164687
2020-10-11 21:30:00,0.8289962253013075
2020-10-11 22:00:00,0.8845566155272968
2020-10-11 22:30:00,1.274285491487864
2020-10-11 23:00:00,1.2594488867904081
2020-10-11 23:30:00,1.0290535230523088
2020-10-12 00:00:00,0.856047378826574
2020-10-12 00:30:00,0.9748260461302211
2020-10-12 01:00:00,0.8647172270996575
2020-10-12 01:30:00,0.8854898696783844
2020-10-12 02:00:00,1.3888720612194225
2020-10-12 02:30:00,1.1575227665120067
2020-10-12 03:00:00,1.6967611902927624
2020-10-12 03:30:00,1.7634714639913218
2020-10-12 04:00:00,2.1085655898994613
2020-10-12 04:30:00,1.3445422757793746
2020-10-12 05:00:00,1.3414274251401677
2020-10-12 05:30:00,1.4519811440566486
2020-10-12 06:00:00,1.3443573564783982
2020-10-12 06:30:00,2.7050398884872817
2020-10-12 07:00:00,2.9653943154821025
2020-10-12 07:30:00,3.743460489118163
2020-10-12 08:00:00,1.6852656085107873
2020-10-12 08:30:00,1.5074605553978033
2020-10-12 09:00:00,1.3985029396300295
2020-10-12 09:30:00,4.399236197889733
2020-10-12 10:00:00,6.01624014765204
2020-10-12 10:30:00,9.614214604294599
2020-10-12 11:00:00,2.13665544423021
2020-10-12 11:30:00,2.252911891656433
2020-10-12 12:00:00,3.150352304879435
2020-10-12 12:30:00,2.5107274797633488
2020-10-12 13:00:00,2.3419877540679135
2020-10-12 13:30:00,1.6694687176223955
2020-10-12 14:00:00,2.0194787875026803
2020-10-12 14:30:00,1.4991984489148549
2020-10-12 15:00:00,1.1666883432321113
2020-10-12 15:30:00,1.1992794409662453
2020-10-12 16:00:00,1.7010299689006056
2020-10-12 16:30:00,1.5553970373152814
2020-10-12 17:00:00,1.2636679291256199
2020-10-12 17:30:00,1.9023162533748157
2020-10-12 18:00:00,2.5597125805459138
2020-10-12 18:30:00,3.141847713955683
2020-10-12 19:00:00,3.5190934480979497
2020-10-12 19:30:00,4.513562065405784
2020-10-12 20:00:00,5.288044795668711
2020-10-12 20:30:00,3.020944723059109
2020-10-12 21:00:00,2.9469614827412722
2020-10-12 21:30:00,3.055099691181625
2020-10-12 22:00:00,2.6088057120937282
2020-10-12 22:30:00,2.062240641917579
2020-10-12 23:00:00,2.8952399654493313
2020-10-12 23:30:00,2.51219714399559
2020-10-13 00:00:00,2.6721951837152984
2020-10-13 00:30:00,1.9791094567731913
2020-10-13 01:00:00,1.8578845585953732
2020-10-13 01:30:00,1.505912863712224
2020-10-13 02:00:00,1.718310661259794
2020-10-13 02:30:00,1.3898264873355628
2020-10-13 03:00:00,1.8817528745759637
2020-10-13 03:30:00,1.777404346193148
2020-10-13 04:00:00,2.123193563887548
2020-10-13 04:30:00,1.1489257815733365
2020-10-13 05:00:00,0.9671625019831339
2020-10-13 05:30:00,1.1365151796945319
2020-10-13 06:00:00,2.1600113041029996
2020-10-13 06:30:00,3.333535832407186
2020-10-13 07:00:00,4.378588765623145
2020-10-13 07:30:00,2.0991655416033193
2020-10-13 08:00:00,1.5044096297166885
2020-10-13 08:30:00,1.533820538836722
2020-10-13 09:00:00,1.7352453557126628
2020-10-13 09:30:00,2.8736886818404326
2020-10-13 10:00:00,3.8088858270772024
2020-10-13 10:30:00,4.5968326833364515
2020-10-13 11:00:00,3.0586519524793254
2020-10-13 11:30:00,1.7948099187521502
2020-10-13 12:00:00,1.777166787730558
2020-10-13 12:30:00,1.808699296518418
2020-10-13 13:00:00,2.065486643287984
2020-10-13 13:30:00,1.6343222524206458
2020-10-13 14:00:00,2.096758677331472
2020-10-13 14:30:00,2.496056331754258
2020-10-13 15:00:00,2.584945852564396
2020-10-13 15:30:00,1.9176903425483427
2020-10-13 16:00:00,1.8692741940638107
2020-10-13 16:30:00,1.4456077428496708
2020-10-13 17:00:00,1.3779824539989847
2020-10-13 17:30:00,1.6593692678795122
2020-10-13 18:00:00,1.7151177811098506
2020-10-13 18:30:00,2.216468279954035
2020-10-13 19:00:00,1.36449002918885
2020-10-13 19:30:00,0.9640663343237259
2020-10-13 20:00:00,1.496706348870712
2020-10-13 20:30:00,1.7366356592910677
2020-10-13 21:00:00,2.581085431450669
2020-10-13 21:30:00,1.7102295150781932
2020-10-13 22:00:00,1.3785757151195424
2020-10-13 22:30:00,0.8842929424831678
2020-10-13 23:00:00,1.2336135762451097
2020-10-13 23:30:00,0.9744806303292006
2020-10-14 00:00:00,1.3492774668691996
2020-10-14 00:30:00,1.9900043095243163
2020-10-14 01:00:00,1.6783366961144397
2020-10-14 01:30:00,1.1594786784664155
2020-10-14 02:00:00,1.32835581057666
2020-10-14 02:30:00,1.5337480464886202
2020-10-14 03:00:00,1.652021162122357
2020-10-14 03:30:00,1.7446088647816924
2020-10-14 04:00:00,1.5347347110613643
2020-10-14 04:30:00,1.149616826128512
2020-10-14 05:00:00,1.0016024141117383
2020-10-14 05:30:00,0.9297014298694098
2020-10-14 06:00:00,1.3771409027422399
2020-10-14 06:30:00,1.9045269967533893
2020-10-14 07:00:00,2.520562014273405
2020-10-14 07:30:00,2.2421222517108816
2020-10-14 08:00:00,1.9173544626287415
2020-10-14 08:30:00,1.9312857383767221
2020-10-14 09:00:00,1.6892307243738927
2020-10-14 09:30:00,1.9049233242522585
2020-10-14 10:00:00,3.54436635818655
2020-10-14 10:30:00,5.559650730605295
2020-10-14 11:00:00,4.630741424168554
2020-10-14 11:30:00,2.603151263104929
2020-10-14 12:00:00,3.1351946375272277
2020-10-14 12:30:00,4.539679587874399
2020-10-14 13:00:00,2.845213274117731
2020-10-14 13:30:00,1.4540419237081512
2020-10-14 14:00:00,1.5545083499203292
2020-10-14 14:30:00,1.5452210957666106
2020-10-14 15:00:00,1.9254892841798674
2020-10-14 15:30:00,1.972537473932776
2020-10-14 16:00:00,1.2170207387756233
2020-10-14 16:30:00,1.3530942563193866
2020-10-14 17:00:00,1.1657460615124853
2020-10-14 17:30:00,1.5902301830044863
2020-10-14 18:00:00,1.54958894327728
2020-10-14 18:30:00,1.547788619305853
2020-10-14 19:00:00,1.5488925710510624
2020-10-14 19:30:00,1.4715939730738774
2020-10-14 20:00:00,1.3722040844496926
2020-10-14 20:30:00,1.39841203551581
2020-10-14 21:00:00,1.271816013720148
2020-10-14 21:30:00,1.508804650929858
2020-10-14 22:00:00,1.6612145293275673
2020-10-14 22:30:00,1.1650149131415266
2020-10-14 23:00:00,1.2580131468780218
2020-10-14 23:30:00,1.5421381080279375
2020-10-15 00:00:00,0.972391383952568
2020-10-15 00:30:00,1.0205024419735733
2020-10-15 01:00:00,1.304244536516916
2020-10-15 01:30:00,1.610938733117894
2020-10-15 02:00:00,1.7251416935134254
2020-10-15 02:30:00,2.3723748331923287
2020-10-15 03:00:00,1.7738385142368158
2020-10-15 03:30:00,1.854331359521672
2020-10-15 04:00:00,1.5277769179566405
2020-10-15 04:30:00,1.5089913256592649
2020-10-15 05:00:00,2.4976303001497406
2020-10-15 05:30:00,2.829226190040988
2020-10-15 06:00:00,3.1720067104796197
2020-10-15 06:30:00,2.3853779600675598
2020-10-15 07:00:00,1.5361372387046521
2020-10-15 07:30:00,1.6308232340705255
2020-10-15 08:00:00,2.404023951916769
2020-10-15 08:30:00,3.200980214343004
2020-10-15 09:00:00,3.9939091212739264
2020-10-15 09:30:00,2.7611266741389375
2020-10-15 10:00:00,2.5200874157884847
2020-10-15 10:30:00,2.740680871357442
2020-10-15 11:00:00,1.7689389697544
2020-10-15 11:30:00,1.5077908816056809
2020-10-15 12:00:00,1.8933506467710606
2020-10-15 12:30:00,2.38213480120831
2020-10-15 13:00:00,3.006313679774573
2020-10-15 13:30:00,2.948773821511502
2020-10-15 14:00:00,2.008367584472625
2020-10-15 14:30:00,1.5480913734547006
2020-10-15 15:00:00,1.5067357422265295
2020-10-15 15:30:00,1.2714011692965719
2020-10-15 16:00:00,2.1362484173988188
2020-10-15 16:30:00,1.8557288588755707
2020-10-15 17:00:00,2.6927685988982235
2020-10-15 17:30:00,1.2715178741944646
2020-10-15 18:00:00,1.7290924797621183
2020-10-15 18:30:00,0.8999690595127753
2020-10-15 19:00:00,1.1235899447977173
2020-10-15 19:30:00,1.2775902597586608
2020-10-15 20:00:00,1.4622621220758747
2020-10-15 20:30:00,1.376114289645772
2020-10-15 21:00:00,1.4641110522689502
2020-10-15 21:30:00,1.0830991412777005
2020-10-15 22:00:00,1.2712624985613983
2020-10-15 22:30:00,0.6792440813679261
2020-10-15 23:00:00,1.0430949790437567
2020-10-15 23:30:00,0.9491383065504251
2020-10-16 00:00:00,3.5576885243244463
2020-10-16 00:30:00,4.805827161555441
2020-10-16 01:00:00,7.963015078589162
2020-10-16 01:30:00,2.7410567455668753
2020-10-16 02:00:00,2.865604073161352
2020-10-16 02:30:00,1.598881246739848
2020-10-16 03:00:00,1.5238282142622555
2020-10-16 03:30:00,1.2631300215622099
2020-10-16 04:00:00,1.392043006268478
2020-10-16 04:30:00,1.8182941334305502
2020-10-16 05:00:00,3.3908925853468164
2020-10-16 05:30:00,3.416727188620885
2020-10-16 06:00:00,5.488162420683728
2020-10-16 06:30:00,2.773856877403107
2020-10-16 07:00:00,2.0684340057183395
2020-10-16 07:30:00,2.6888178838235586
2020-10-16 08:00:00,3.1038990852054003
2020-10-16 08:30:00,3.9463187777156823
2020-10-16 09:00:00,1.5225692452857125
2020-10-16 09:30:00,1.297885463908676
2020-10-16 10:00:00,1.282563823874407
2020-10-16 10:30:00,1.5161784667146432
2020-10-16 11:00:00,1.8670126137751288
2020-10-16 11:30:00,2.4120029111458474
2020-10-16 12:00:00,1.9650326015540271
2020-10-16 12:30:00,1.7128772973594064
2020-10-16 13:00:00,1.8050765891952687
2020-10-16 13:30:00,1.1421233959574695
2020-10-16 14:00:00,1.4486802758389017
2020-10-16 14:30:00,1.722503471541085
2020-10-16 15:00:00,1.720171558012962
2020-10-16 15:30:00,1.285521179635831
2020-10-16 16:00:00,1.9330293133909824
2020-10-16 16:30:00,2.223957578860891
2020-10-16 17:00:00,1.8888244868727921
2020-10-16 17:30:00,1.7065470215805267
2020-10-16 18:00:00,2.0232190276063564
2020-10-16 18:30:00,1.5783446518001458
2020-10-16 19:00:00,1.3303467878276853
2020-10-16 19:30:00,1.1812032611234633
2020-10-16 20:00:00,1.3041477139344546
2020-10-16 20:30:00,1.4592118122361162
2020-10-16 21:00:00,1.3972974384786714
2020-10-16 21:30:00,1.668225020796536
2020-10-16 22:00:00,1.5967585443400132
2020-10-16 22:30:00,1.8316072194674111
2020-10-16 23:00:00,1.0723774701207063
2020-10-16 23:30:00,1.0590177524297937
2020-10-17 00:00:00,0.9650882993496532
2020-10-17 00:30:00,0.9760159047643064
2020-10-17 01:00:00,0.8789952032416645
2020-10-17 01:30:00,0.9833783458378476
2020-10-17 02:00:00,1.0210952183560253
2020-10-17 02:30:00,1.2663556558184177
2020-10-17 03:00:00,1.5935533765953924
2020-10-17 03:30:00,1.4219233962639324
2020-10-17 04:00:00,0.8600170599853115
2020-10-17 04:30:00,1.0954148692998853
2020-10-17 05:00:00,1.0546626029291697
2020-10-17 05:30:00,1.1685522845688956
2020-10-17 06:00:00,0.8850237268304202
2020-10-17 06:30:00,0.9209866388615366
2020-10-17 07:00:00,0.6322876998135336
2020-10-17 07:30:00,0.7184371313333106
2020-10-17 08:00:00,0.5633886862249897
2020-10-17 08:30:00,0.7135351344001968
2020-10-17 09:00:00,0.9906620853091815
2020-10-17 09:30:00,1.4046102513501622
2020-10-17 10:00:00,1.5551768669039847
2020-10-17 10:30:00,2.1639884204807407
2020-10-17 11:00:00,2.5345299478604812
2020-10-17 11:30:00,3.182401791975966
2020-10-17 12:00:00,2.0568713036899813
2020-10-17 12:30:00,1.125247938230606
2020-10-17 13:00:00,1.21361912219562
2020-10-17 13:30:00,0.9932103357505181
2020-10-17 14:00:00,0.6387178141411555
2020-10-17 14:30:00,0.559714352644926
2020-10-17 15:00:00,0.48259780131580204
2020-10-17 15:30:00,0.36514128437076154
2020-10-17 16:00:00,0.6105645580323051
2020-10-17 16:30:00,0.8722011334164796
2020-10-17 17:00:00,1.1259260970168863
2020-10-17 17:30:00,1.2359239955607317
2020-10-17 18:00:00,0.7649203974985316
2020-10-17 18:30:00,0.5419876093808642
2020-10-17 19:00:00,0.5297367743225808
2020-10-17 19:30:00,0.7505103391642284
2020-10-17 20:00:00,0.732842220630786
2020-10-17 20:30:00,0.9612044420012362
2020-10-17 21:00:00,1.0009116100621134
2020-10-17 21:30:00,0.818405627163637
2020-10-17 22:00:00,0.524351821685083
2020-10-17 22:30:00,0.5606469076873698
2020-10-17 23:00:00,0.6241834788612839
2020-10-17 23:30:00,0.5567122956672994
2020-10-18 00:00:00,0.6373111858047147
2020-10-18 00:30:00,0.8958734231316082
2020-10-18 01:00:00,0.8446823568821603
2020-10-18 01:30:00,0.7079029605217577
2020-10-18 02:00:00,0.5814141073240272
2020-10-18 02:30:00,1.3389147611233159
2020-10-18 03:00:00,1.910737933892137
2020-10-18 03:30:00,3.0525584143925464
2020-10-18 04:00:00,1.477087400137244
2020-10-18 04:30:00,1.5420420229748442
2020-10-18 05:00:00,1.8057461578025225
2020-10-18 05:30:00,0.8484730884640757
2020-10-18 06:00:00,0.9755968599203733
2020-10-18 06:30:00,1.369554409901472
2020-10-18 07:00:00,0.8134216494474175
2020-10-18 07:30:00,0.6012740336318736
2020-10-18 08:00:00,0.5145196856095214
2020-10-18 08:30:00,0.44007995771295105
2020-10-18 09:00:00,0.572554669323114
2020-10-18 09:30:00,0.5676407357362245
2020-10-18 10:00:00,1.2258086654508442
2020-10-18 10:30:00,1.8080871721377803
2020-10-18 11:00:00,2.464122066492168
2020-10-18 11:30:00,1.3902293372450885
2020-10-18 12:00:00,0.7176737577430543
2020-10-18 12:30:00,0.878471519202228
2020-10-18 13:00:00,0.7923216290326305
2020-10-18 13:30:00,0.7821311230104936
2020-10-18 14:00:00,0.7170694897535602
2020-10-18 14:30:00,0.8915955053006128
2020-10-18 15:00:00,0.6754686519451194
2020-10-18 15:30:00,0.747493480944466
2020-10-18 16:00:00,0.6860329890438
2020-10-18 16:30:00,0.6561175289963824
2020-10-18 17:00:00,0.6646618796352913
2020-10-18 17:30:00,0.48338564088692837
2020-10-18 18:00:00,0.5500630521986145
2020-10-18 18:30:00,0.7611205194945221
2020-10-18 19:00:00,1.0343595497339464
2020-10-18 19:30:00,1.3662235195846204
2020-10-18 20:00:00,1.6775082245291921
2020-10-18 20:30:00,1.9012352010972258
2020-10-18 21:00:00,2.47754327659431
2020-10-18 21:30:00,1.9417323696758655
2020-10-18 22:00:00,0.9309922538536712
2020-10-18 22:30:00,1.0442244280010082
2020-10-18 23:00:00,1.2584076603322578
2020-10-18 23:30:00,1.4299336421200446
2020-10-19 00:00:00,1.8767743536406558
2020-10-19 00:30:00,1.151995429477256
2020-10-19 01:00:00,0.9387148694630726
2020-10-19 01:30:00,0.6748087089771773
2020-10-19 02:00:00,0.9124027690252497
2020-10-19 02:30:00,0.9684229770693615
2020-10-19 03:00:00,1.1166391740889778
2020-10-19 03:30:00,0.9136804714427129
2020-10-19 04:00:00,0.8621771850792475
2020-10-19 04:30:00,0.697202283183003
2020-10-19 05:00:00,0.7837496458894293
2020-10-19 05:30:00,0.7992703108907115
2020-10-19 06:00:00,1.0093287891040175
2020-10-19 06:30:00,0.8888698701341992
2020-10-19 07:00:00,0.7743985782898086
2020-10-19 07:30:00,0.8171521669340336
2020-10-19 08:00:00,1.0199269423801711
2020-10-19 08:30:00,1.33799935918046
2020-10-19 09:00:00,1.8283514957233078
2020-10-19 09:30:00,1.9118161163538683
2020-10-19 10:00:00,2.977678921838786
2020-10-19 10:30:00,1.6546578140759967
2020-10-19 11:00:00,2.16809629386723
2020-10-19 11:30:00,2.208327983531918
2020-10-19 12:00:00,2.6384954008986585
2020-10-19 12:30:00,2.824978104124571
2020-10-19 13:00:00,1.1853979135122616
2020-10-19 13:30:00,1.0154780127215493
2020-10-19 14:00:00,1.1895911071107432
2020-10-19 14:30:00,1.8896441266220796
2020-10-19 15:00:00,1.3098324354594373
2020-10-19 15:30:00,1.3610634840545788
2020-10-19 16:00:00,0.756150915427478
2020-10-19 16:30:00,0.6572620785165049
2020-10-19 17:00:00,1.0567252410040453
2020-10-19 17:30:00,0.9594111409362768
2020-10-19 18:00:00,1.516123292876145
2020-10-19 18:30:00,1.3983439845170447
2020-10-19 19:00:00,1.8108877991455943
2020-10-19 19:30:00,1.0791096338885455
2020-10-19 20:00:00,0.9215978517801321
2020-10-19 20:30:00,0.9109530819723579
2020-10-19 21:00:00,1.173485989056967
2020-10-19 21:30:00,1.0588424100116074
2020-10-19 22:00:00,0.9091944840013698
2020-10-19 22:30:00,0.6415956148074469
2020-10-19 23:00:00,0.7855677228751194
2020-10-19 23:30:00,0.860639490360724
2020-10-20 00:00:00,1.3469284880897874
2020-10-20 00:30:00,1.5452142863115497
2020-10-20 01:00:00,1.0874995159855616
2020-10-20 01:30:00,1.2873554281039326
2020-10-20 02:00:00,0.9951939708647115
2020-10-20 02:30:00,0.9574937850417948
2020-10-20 03:00:00,0.8902889176266693
2020-10-20 03:30:00,1.686098990597282
2020-10-20 04:00:00,2.5230228248159556
2020-10-20 04:30:00,3.027553148892094
2020-10-20 05:00:00,1.2112118310620679
2020-10-20 05:30:00,0.7582458975774207
2020-10-20 06:00:00,1.1103774910394357
2020-10-20 06:30:00,1.584654878545583
2020-10-20 07:00:00,3.4029242464796967
2020-10-20 07:30:00,4.899827327080199
2020-10-20 08:00:00,7.379345084352586
2020-10-20 08:30:00,2.6056399017375518
2020-10-20 09:00:00,2.489240492865342
2020-10-20 09:30:00,1.8941477455186422
2020-10-20 10:00:00,2.1723318073451514
2020-10-20 10:30:00,1.8613543046010674
2020-10-20 11:00:00,1.6722870614628693
2020-10-20 11:30:00,2.190206245094442
2020-10-20 12:00:00,3.1489763356260356
2020-10-20 12:30:00,2.276616227579815
2020-10-20 13:00:00,1.8755249698677352
2020-10-20 13:30:00,1.6598450806469556
2020-10-20 14:00:00,1.6845534780601517
2020-10-20 14:30:00,2.421705073999497
2020-10-20 15:00:00,1.9873648619044777
2020-10-20 15:30:00,1.4773221808126167
2020-10-20 16:00:00,1.5680373024508503
2020-10-20 16:30:00,1.3242796694427306
2020-10-20 17:00:00,1.6663253937519387
2020-10-20 17:30:00,1.6211327351281422
2020-10-20 18:00:00,1.7651606177106722
2020-10-20 18:30:00,1.594415722361226
2020-10-20 19:00:00,1.0594573167776187
2020-10-20 19:30:00,1.4577964682402496
2020-10-20 20:00:00,1.497243046111378
2020-10-20 20:30:00,1.928822015169258
2020-10-20 21:00:00,2.1215581490044144
